6.13426186207889
6.184642268757395
6.537068643889791
6.619813744291883
7.023699690386238
7.001319321605854
7.283394047806574
7.187665650398194
7.511431578736816
7.557499801840388
7.619126270330632
7.5649023685195305
7.7747609577315595
7.835798385267328
7.896184313214955
7.87471766154808
7.6267288174897425
7.817155340981811
7.753464170801267
7.58047843890488
7.547840544778865
7.488791271957044
7.50032005270731
7.012997850116699
6.936392345638133
6.701190292152649
6.6165108855582275
6.30663237384333
6.310729670166399
6.222018116015251
5.877127632818574
5.789501224218077
5.7737539344740325
5.722053719802762
5.447822838665808
5.275981084615538
5.293886820865581
5.091518357285142
5.085601082906512
5.162835582142401
4.942069559671637
5.229722151923225
5.128700371412108
5.212047685234417
5.114610125856384
5.137474275688454
5.127567702669733
5.2108529491825655
5.467819353245239
5.366581630748398
5.342144425641186
5.571526226067181
5.500830708903379
5.599933344758377
5.749301358970204
5.910008110041337
6.039265258601718
6.043808250747668
5.9734622954684085
6.059552775415298
5.888872709699941
5.904233763356132
5.971232764525034
6.082493039494409
5.902825893207588
6.026870036176952
5.919837962046601
5.817942168401581
5.560612886565168
5.607402404635
5.693481703340228
5.727220297954079
5.5644583579127005
5.593992641100174
5.393316702275533
5.118342536768182
5.298442460624723
5.321524408778269
5.250245479070042
5.141234927140906
5.327225442785095
5.356798164564067
5.415499803135784
5.264991393769178
5.397589139010365
5.491518505343564
5.534296238989357
5.705552643326196
5.752441591230976
5.839220292260568
6.169328208915105
6.1352459444944465
6.257734220507708
6.508141383172219
6.521618158067414
6.73755533503663
6.836451060890134
6.991806991432201
7.278322028988182
7.3801498716406915
7.214820591828357
7.37405732392139
7.632530579812281
7.5888390604412415
7.577206604916912
7.81417522650248
7.641927429068175
7.732538700525088
7.692669947332035
7.634248230621138
7.598013705527209
7.364375375350626
7.520400679495277
7.017984814958054
7.047722275838019
6.882369320561114
6.646037861296377
6.474310135477917
6.258942500552424
6.186755858774413
5.965725037940156
5.735269893220801
5.559283412677305
5.220429456011404
5.084646241329287
4.851235736816429
4.758034151724229
4.608255608979565
4.599937636461382
4.33993638159336
4.145356709154424
4.109040029550888
4.214857363516299
4.137272311583777
4.078516592734511
4.170158354775872
4.119437216884907
4.240183316138961
4.205489154050085
4.46331686957942
4.317336331435644
4.532214251426995
4.796676885119139
4.736411019748538
5.104379806039632
5.371590409625603
5.342527439173721
5.679335653032556
5.834606660684724
5.957934006628136
6.150525025123994
6.200213575983781
6.414486497253257
6.492100100219243
6.772221089164554
6.691001249972022
6.990435459193398
6.874256372756582
7.0285374626849695
7.047156836334871
7.173060505288008
7.00018884558978
7.194665182639773
7.134851790690771
7.092155424241853
7.066213953048131
6.911184766506706
6.95919443038547
6.948618159565263
6.823208380591181
6.740529306152014
6.577290081607021
6.474441739084805
6.489916764346952
6.568240157726064
6.139656837314526
6.309134157731938
6.121757127669399
6.034297081388722
5.941576405059365
5.97175814239446
5.8709191292279534
5.925715278485422
6.024534993283193
5.954290464129799
6.031164347288861
6.009317709153455
5.910141735637831
6.049231696677222
6.052316900200235
6.102061264868687
6.157864721997457
6.195957502162392
6.240178283173012
6.403325242972366
6.3145843830733925
6.407664254415405
6.5017708571026755
6.484747776621028
6.401144377477264
6.649491817586885
6.588172547693563
6.408918165354391
6.531882377578194
6.414248639054468
6.372342282627626
6.326209278688095
6.273041749215436
6.210231599686013
6.161802825213591
5.894472793389195
5.676564317649482
5.604941783045497
5.327466449329882
5.369258551861551
5.264055742227156
5.151246032484597
4.906101171555854
4.956366872767206
4.832395119121303
4.461721332496618
4.771469619485941
4.33229182023927
4.357749984787838
4.3538503298165905
4.337331165559618
4.316884234166363
4.314160325136488
4.548442917204308
4.390107299839244
4.702942286488496
4.700325354954271
4.894222450615733
4.816797878627801
5.107043311896124
5.26497504516884
5.440620607684768
5.6049876159390015
5.743485519456408
6.035242258525045
6.115868795238523
6.435343797695147
6.522918539877606
6.9568286810054385
7.002517351426429
7.203552862142199
7.407503382032773
7.438260837851216
7.714273206898088
7.8629805365866385
8.055736802564972
7.752554430260739
7.994297757302498
8.087102316997006
7.957034134412398
7.974512935163016
8.109342927678332
7.981134352233104
7.529165596318942
7.777027897571471
7.551339534210618
7.429107167014859
7.374528496350624
6.9471039661739935
6.754414813881884
6.76152784629122
6.6173924186439645
6.350033374695401
6.427377183548081
6.151530860942169
6.039494878489656
5.534260962122358
5.441070502183711
5.39175724174254
5.170025133707656
4.985381335144025
5.038503633586595
4.872593274393078
4.777328505671517
4.77922244823875
4.70591378471765
4.696051345332812
4.705325285883028
4.702552596886534
4.809907731310734
4.625519725379408
4.9905857203962025
4.834921962861884
4.886790458764647
5.159622312763979
4.964831427509227
5.23474760335674
5.285279300136095
5.434877813480137
5.4154201703609335
5.675137079699141
5.741269234966881
5.906613607022218
5.932689142459281
6.104938878053304
5.973188458775446
6.158494424465723
6.190274610295768
6.321427308971241
6.077438079923634
6.447158528230741
6.166191001193583
6.1097755442365
6.190445881838235
6.195607091349334
6.0854855450207115
6.010549284506789
5.98455771195179
5.84104866331079
5.99583504861106
5.8139335740806635
5.832266092169145
5.610204090779517
5.767969050915586
5.9152039712245585
5.6914265686071674
5.560943853916506
5.734433525862609
5.60410140657633
5.8871148739113845
5.974841454158496
5.855049330133341
5.815814237858032
6.023906085416899
5.9248125643328855
6.0538027298120465
6.2356614513482285
6.254740505205845
6.46931992867559
6.499515495991468
6.639947347922911
6.779487969481792
6.8656895015386405
7.061741728371304
7.199273793784022
7.199983864361262
7.269880904913522
7.225927818993506
7.487276542514131
7.518466935912431
7.461278989257245
7.470330623447351
7.401563019766714
7.461906756786864
7.22847164185855
7.253243677503176
7.201002602294057
7.198071338103468
6.9172009648634045
7.001521127343497
6.583895412517131
6.77361670381933
6.387105713393034
5.962683521135751
6.140734331747793
5.666039466566353
5.5558328749356845
5.306623570618932
5.108579948745449
5.002979968489461
4.7343579327676615
4.623575799125399
4.470157810008806
4.2688447581454065
4.408474415910484
4.094950177734394
4.206959314047985
4.060936042468211
3.9564202353141327
3.9330099417316435
4.113989478727879
4.177122231193731
4.07045818677817
4.194483583143285
4.380235647382065
4.521604665244876
4.527135223007578
4.762583148132116
4.975135057793672
4.989284905674109
5.421422543507557
5.414256075721508
5.765730207678737
5.933467660938975
5.990383212273789
6.42325881889908
6.314572085094726
6.621916765097838
6.843004125705063
6.862823242737855
7.011955200980236
7.182425395434308
7.3181148491406285
7.387218837681136
7.398842233040899
7.585454906243461
7.463232929436426
7.620355074480173
7.409941796030987
7.467500744796062
7.37002264843744
7.255348574478334
7.246518151677366
7.199761622818208
6.984463206048092
6.936148227307946
6.791983866315736
6.671557534800816
6.514757867534939
6.474291410565398
6.457900610807625
6.15873160485684
6.175128723270904
6.187945524369173
5.882823344128766
5.846083979435226
5.747322539097136
5.800688037452394
5.704969719029602
5.7027567315606005
5.625466905824821
5.522069146444807
5.540547009914661
5.678893630071309
5.685762517126629
5.676142549665901
5.579892834410526
5.73522621477251
5.858876446145172
5.794198620874702
5.941768159984583
6.002219302361182
6.0775150497902946
6.074933268731724
6.0169271814187795
6.206855926778118
6.037515609992559
6.099449486886978
6.288171484044098
5.9972564855695225
6.163916592405819
6.10046231727376
6.14130224397704
5.989639567436324
6.008781405809001
5.632271642525581
5.7805365138102855
5.814275970288997
5.519570986180909
5.472309080844893
5.420438867388084
5.28442795440927
5.1765177322852445
5.302543513116335
5.1031778075645935
5.036020456687943
4.928630607633632
4.665165677296026
4.63334809650988
4.796671184455452
4.863073260805773
4.702300838837638
4.9168076974507935
4.816475778872727
4.916251460633434
5.0411206823510035
4.619804403598422
5.21727059515263
5.258463832643585
5.198022820757425
5.4339152255965715
5.803246087243247
5.776984587045168
6.019965954989648
6.0836169873631665
6.209332587584801
6.5537288654638886
6.63211992200273
6.923686347721266
7.068394521729748
7.208670189601751
7.324565189352297
7.55620310477745
7.7086444439691295
7.650649495304693
8.015998514506816
7.822103070239804
8.02323448459282
7.969225508314825
7.9269623215372
7.855487171370176
7.898167273366981
7.842463201340765
7.8393036929002715
7.592626452465178
7.318852470075937
7.207575250704393
7.168417341594317
7.227869570594833
6.787300477223843
6.484689397074821
6.223891609317413
6.181099123391759
5.8232327877339305
5.744755263280639
5.559357015520967
5.412381599275763
5.187369121303262
4.971604925205272
4.914581930620989
4.910775047026922
4.513543710230299
4.465375937998698
4.400288164868645
4.419752671529327
4.2920739210056436
4.344104861923862
4.304664346902797
4.355018056251389
4.228126628316609
4.478732988903909
4.582345410424006
4.644491185598108
4.618874653245077
4.767798338338149
4.865877758501664
5.056470732118866
5.046834850065095
5.372120708253363
5.66901640278424
5.548055540030749
5.84677965790358
6.011128234880818
6.0844114605256685
6.214115644359017
6.403659501242578
6.311770007261741
6.427845349106306
6.480752692028082
6.522692887573912
6.695239300566831
6.653952936000165
6.573131564245906
6.587706605668059
6.522357165533605
6.841610187245313
6.40792652041935
6.529009983399492
6.45001982932391
6.335708675074983
6.260857882647197
6.3536017192796255
6.404948033449937
6.2443977116694995
6.084445349659797
5.937586320464188
6.048859556552782
6.046895189999252
6.043531653842522
5.989758480422438
5.964630267153427
5.984866524805844
5.922274039678168
6.071615765394893
6.096040935665815
6.235144390163734
6.0732690998929275
6.304040568133406
6.323612810303055
6.4814847956944455
6.390798519316217
6.474493244841817
6.5601349767162445
6.7097534062642925
6.736780195568523
6.79193360318096
6.964276728027903
6.954691159136445
6.892216854232612
6.935597691011836
7.011463128088009
7.130203703417559
7.006152059379057
7.023994165903173
6.920247560768318
6.841009262651562
6.942612112138043
6.798905543275374
6.4881085057465455
6.389300262971302
6.202565221777431
6.116670078058561
6.175189172040774
5.920065339092127
5.693993841228827
5.510833925980457
5.20712437659823
5.0057777176890745
5.0162722993674755
4.753998564618265
4.661863657716429
4.530162164208414
4.485108206004101
4.481085661939992
4.332184606236016
4.196530114401108
4.074545494529799
4.12598405947473
4.0936149491934835
4.202758430748187
4.002087587946127
3.97382519047169
4.136413064592336
4.191685784594303
4.5585654057952985
4.5796950354006025
4.618607931822052
4.986577604875019
5.402908515538585
5.309071292250142
5.4943040662847356
5.709587509909557
5.843958515396786
6.037068954844845
6.22612311458874
6.6308036721968495
6.680391675400507
6.901366106929226
6.91792406648677
7.353181818274167
7.42855065525486
7.508096614348583
7.568055452398352
7.524382620151055
7.705361589192265
7.750419336847241
7.934725273674307
7.864070666739915
7.862121034314626
7.7837857737674305
7.618545259802753
7.646250389982921
7.421986443358936
7.40081511973054
7.2531766542762925
7.154282621246942
6.892620239120967
6.886252741618884
6.791443636462178
6.602705722327169
6.539667181015097
6.301270298611185
6.076208852032133
5.993830324396446
5.655870354505392
5.741683317468804
5.5398320986890965
5.42080463405905
5.29125118513236
5.236137135140665
5.253118511197572
5.194334030353038
5.13759523079349
5.162037166298225
5.094631193918861
5.402191276680028
5.287081680600357
5.297918628095283
5.5290595743857605
5.485271369302337
5.491490598073488
5.393900538665585
5.542961757623166
5.560525459920129
5.76944076564953
5.711795150094093
5.817467356651806
5.939263935251544
6.050252557201732
5.928478463205796
5.832857542534214
6.215189442251031
6.083651268810715
5.972735770804126
5.905841906822626
5.906956694393462
5.945545431107221
5.597795624670459
5.884830043602795
5.78154672003906
5.92939166330658
5.572994078766973
5.574185963875976
5.6142465841104485
5.342601974762653
5.3715774948516035
5.346088440729517
5.270468549389346
5.101533254561437
5.029209823390436
5.141875801559307
5.172563221510437
5.1360762564649765
5.204330600607479
5.2036654536344775
5.370360846813867
5.365830701560386
5.397710336796851
5.514472363164422
5.6514274727608385
5.72197232725689
5.98385731153421
5.926181687241042
6.2034925307103155
6.193846854510025
6.413656097156439
6.555774427007032
6.739381750729905
7.055100219078577
7.031472952530993
7.4132671068551295
7.538930206710757
7.490336186971372
7.815189345204915
7.7034950228982755
7.689020303148504
7.803171775129158
7.778868387700107
7.8848513204430555
7.94735547124313
7.798880439074107
7.626503948678522
7.802181235796866
7.4302526129053135
7.4109683752898174
7.3376826634481676
7.142728333150725
7.106051101860685
6.831188548756204
6.581028606522211
6.263383207630172
6.433262997510699
6.07042116394277
5.745904919315869
5.4641339253704055
5.43776063394143
5.256989573473491
5.029178133179627
4.837338555868391
4.812690480209621
4.604810895364341
4.445582883905959
4.160521409244426
4.291877296851732
4.05742688842791
4.109264650276503
4.16723908697151
4.03658413995889
4.072122412904015
4.163439120167125
4.156176884575702
4.433761794705018
4.221379911840499
4.544258779735953
4.710342193136956
4.813847451178162
4.874866405815702
5.063560923218446
5.3634344595345755
5.5441233133742145
5.576656134028474
5.845889679270533
6.01013510281491
6.154031814994298
6.25265421211369
6.4440106759200795
6.689655898023285
6.645501666595677
6.82421003387509
6.855809554082331
7.011585612025273
7.191108134524656
7.077793977798272
6.914092758990305
6.824642082615757
7.107356482048097
7.023423539921512
7.153773836538131
7.004750567451882
6.793974327553837
6.74264311662782
6.651613773819209
6.648948412334111
6.5337192651761935
6.449097022512289
6.475835721282463
6.395248354944089
6.364333614812804
6.21008115612549
6.088531128200681
5.932038511474616
5.926932170137904
6.067795702215987
5.995708199265818
6.00618145795328
5.913054104277024
6.086084913131847
5.987787950258189
5.958560676779272
6.116255768813448
6.0335962977473585
6.3374459429630186
6.250733992132011
6.251904882618716
6.384105908350714
6.461068925342473
6.484474598523487
6.715543390369897
6.7104874934370855
6.461940448759858
6.749028406421486
6.70095563239911
6.577591088927427
6.657748632467732
6.576490597984335
6.622859415774407
6.462173737736216
6.38190015020138
6.450655417098963
6.350609209590915
6.238897267431658
6.033419331959699
5.988505146150195
5.936920345474439
5.9691928820626945
5.501005536658413
5.42923721579081
5.2973967880095625
4.923793964161005
5.066993011709456
4.838497642041057
4.559248440745284
4.600069520275165
4.529921741619448
4.625845814910221
4.5473620587874795
4.112759916551553
4.354149852821456
4.285999268271224
4.337699744396025
4.336652432552271
4.2743311147420595
4.363515707564807
4.628730247881739
4.6590978800717195
4.757219454911171
4.873487571150146
5.103489815066687
5.266269215012624
5.706633167037082
5.573023821558565
6.055871473889587
5.974012347898065
6.199679932473165
6.524742811390112
6.835411454587489
6.908477295451518
7.021081831656784
7.276073399571317
7.377465389121072
7.477097367491457
7.569388955830544
7.7469738792215015
7.822172068859165
8.014674559390857
7.938564713024822
7.988913688104921
8.047197013312463
7.861631242104638
7.971865601441904
7.749885226444758
7.475543931692643
7.510573041166241
7.559900351016798
7.398881179890912
7.172578279133223
6.924732604635993
6.6645753293689065
6.520376100150433
6.342315766473103
6.162363226670777
6.231354293830567
5.776998493206597
5.674486400601808
5.490553672593798
5.365188244298382
5.213689997870414
5.405728401691764
4.965329413639905
4.803393936957215
4.854614739585775
4.745970611902513
4.761471111201097
4.572163175399812
4.714615678584216
4.647340884667598
4.842010837257976
4.653460406810558
4.825872161876236
4.784150887562603
4.951068999561613
5.264069514739089
5.266106970786698
5.277839430614275
5.429852237042269
5.295089884200754
5.4446523795435136
5.699075125719769
6.068592984184049
5.5435623027652845
6.107886209815579
6.072204684807065
5.962716112942626
6.063270417460061
6.029015253731547
6.105181630901023
6.149337527884094
6.20135139282512
6.051214116501502
5.918926852269247
6.04586520591691
5.915506038556147
5.944172513005849
5.810859673154879
5.80627779273635
5.847734448671301
5.838009373171474
5.739471427528054
5.692301486048656
5.520579615495033
5.507713695448901
5.575948676532429
5.453572528726742
5.560541418188224
5.691918112241168
5.657524803237144
5.747296015504219
5.846880435514294
5.857749892780232
5.7939008695209235
5.864315136486129
6.02987795880885
6.113254559267774
6.203387805351182
6.371386754177856
6.280648695800977
6.41976846293857
6.658333665845467
6.733239560764311
6.951046824338581
7.169934971633167
7.337952344624717
7.320691878666196
7.282613395576838
7.382066130087476
7.3702040060922585
7.571023984407394
7.442200374657369
7.397641669759469
7.543498372905714
7.384596683679719
7.350895562347736
7.425553821322959
7.199504804100098
7.187988533351978
7.118842575900528
7.008755270561559
6.730279889453808
6.581685056539815
6.25600100229364
6.203981854561387
6.256961345285283
5.7418685934936295
5.576942180835473
5.397610131735936
5.013020822864044
5.127560959940988
4.837193242476584
4.548531030633681
4.48499206036659
4.30520059499094
4.263321732670174
4.169601173838579
4.127363211933447
3.9117010761572955
4.0177813828682645
4.013318205078119
4.1027108555036484
4.252421792546201
4.2441472536822085
4.167090260932746
4.324691256889674
4.434307112517606
4.632785481140372
4.717771725814352
4.873655335561261
5.127258832837677
5.084765040965147
5.286525802789472
5.582555445169747
5.6396869252223505
6.104918843017907
6.298682079144262
6.3983107436897875
6.410551977851369
6.934998815311528
6.9612072991999225
6.87458932651814
7.1773086819769825
7.261890231121585
7.096478648799803
7.271582730565131
7.34705192367522
7.39988311758969
7.426024955354006
7.710471004453527
7.342437189621405
7.150991296924522
7.452038330413766
7.3370972099798175
7.239346198617644
6.897274504657787
6.9479982829569575
6.7482758810293415
6.809524984828018
6.579230515502896
6.495882474674554
6.217640150330951
6.397508118601962
6.170564599397374
6.05101223193583
5.931187924794874
5.9790063050059405
5.7282689109334575
5.7753409623900005
5.779498020957993
5.718304849617503
5.798667626137454
5.638908022847617
5.939528668833319
5.631477461367616
5.706552399288694
5.83168443818195
5.808708405097237
5.858651564751457
5.883672816818327
5.880804744507447
6.119581261839974
6.131269746777184
6.062374138880692
6.086520196060736
6.289952413337674
6.092369186296455
6.359900191375438
5.960274107466305
6.294760928077368
6.308741127661527
6.341279297376516
6.091246749028576
5.9160409889288115
5.941242068271752
6.01810899387192
5.92383680760455
5.676724931238738
5.831225366555205
5.5941007153945455
5.447526192233793
5.465278387708343
5.399020725405392
5.255455343594587
5.126319906771648
5.056748742960769
4.971463922252607
4.893181237638022
4.818757315928112
4.675758516216571
4.739078475157635
4.7252780622960024
4.61688973493981
4.5678581013970945
4.652920894055815
4.669302439091408
4.8503123896097105
4.956731417747124
4.940037683704367
5.019780447150106
5.05729159539639
5.489696175038956
5.468821751093796
5.638814891200616
6.038245961832699
6.0827460448375374
6.363298263613178
6.44458976270813
6.5461672532147706
6.775961128276598
7.361729874172818
7.1706914500541785
7.340564359256003
7.6063396483636865
7.665876755498051
7.64761957980872
7.994440837028306
7.898904344857025
7.918729169800118
7.83388019600776
7.8463845960075975
7.767206269445051
7.950435071214374
7.799219075191906
7.7750216817661055
7.698829589599821
7.562001019716812
7.41007457011461
7.194186443083186
7.023201025499598
6.895653613932143
6.6966105959308475
6.358693505038978
6.219417069972316
6.124476170566023
5.68964465992671
5.595745265821083
5.413042965783711
5.346288560449935
5.406855148853267
5.069671667628149
5.079710906031972
4.83601273810226
4.719803523207834
4.3112244325552105
4.461480069950163
4.429204109603258
4.270577358499685
4.222461747177226
4.423810421176091
4.442951159842084
4.524590730546919
4.594787471313676
4.814989793580695
4.6088688743089445
4.979717732279435
4.933279480045837
5.248090714379751
5.380760152984987
5.317870961501099
5.469942074653439
5.639481954454489
5.5931744041322595
5.914514546104163
6.026891513211072
6.130790814008552
6.06140100453864
6.146441997257188
6.354919412045332
6.438596951914825
6.487593731855878
6.638238426787561
6.392003131497715
6.548560760997402
6.470502499106734
6.392843952285512
6.494515387498534
6.410150904146324
6.4196046474713695
6.406811906576094
6.396280547182921
6.134716274938107
6.243365065252162
6.086217317003788
6.074116554665623
6.0238890904647135
5.923835825036461
6.016179789906619
5.990808771886648
5.901157879836285
5.891040518259791
5.86036484817311
5.843604578998402
6.114317087221612
6.059973836452033
6.036695532368094
6.074057651493614
6.175543899382172
6.218415264327197
6.381638352738653
6.531492694155375
6.507156459497022
6.715443118260452
6.632355206180104
6.709456771947831
6.699286583148123
7.147209862504074
7.0689335769488215
7.03441297331187
7.05147341997417
7.110188601842717
7.051296041534551
7.06509295387542
7.194727879655288
7.2586940471287225
7.08557112327674
7.088863062611006
6.957210264583731
6.954854347281271
6.9053535045257055
6.81017135506076
6.526185816017066
6.418832760333328
6.203648272257762
6.107810593994317
5.710923915168808
5.502880761627302
5.514969067710327
5.402317392494604
5.059973946538767
4.961133376388012
4.732050296897175
4.421107250501474
4.468449667916872
4.348276814995042
4.346141060894761
4.277571626630232
4.051598366965331
4.0831332915523
4.023012171641355
3.868785312036295
4.070937440896514
4.195945918027345
4.259221866006408
4.233604120373975
4.477385750290347
4.559473173640281
4.604638361605956
4.878694257880167
